# Version 1.00
#
freq[Hz] re:Trc3_S21 im:Trc3_S21 
2.000000000000000E+009 -4.762413649115747E-001 -1.984941363334656E-001 
2.000811094640392E+009 -4.794887548360847E-001 -1.882730871438980E-001 
2.001622518218042E+009 -4.831761120851084E-001 -1.784689128398895E-001 
2.002434270866349E+009 -4.863499448516490E-001 -1.689376831054688E-001 
2.003246352718768E+009 -4.899998763114312E-001 -1.594712436199188E-001 
2.004058763908805E+009 -4.932448426590891E-001 -1.482131779193878E-001 
2.004871504570024E+009 -4.962589261349173E-001 -1.385930180549622E-001 
2.005684574836040E+009 -4.988538586784849E-001 -1.291247904300690E-001 
2.006497974840523E+009 -5.013261404281132E-001 -1.181712076067925E-001 
2.007311704717198E+009 -5.034761413400469E-001 -1.079015210270882E-001 
2.008125764599845E+009 -5.052723742137562E-001 -9.727115184068680E-002 
2.008940154622295E+009 -5.079309445732975E-001 -8.726277202367783E-002 
2.009754874918436E+009 -5.091057317387135E-001 -7.674188911914825E-002 
2.010569925622211E+009 -5.108145693701477E-001 -6.592079997062683E-002 
2.011385306867613E+009 -5.113130130578889E-001 -5.573660135269165E-002 
2.012201018788695E+009 -5.121844064429555E-001 -4.534935578703880E-002 
2.013017061519561E+009 -5.132414947599618E-001 -3.519190475344658E-002 
2.013833435194369E+009 -5.137418900840489E-001 -2.494899183511734E-002 
2.014650139947333E+009 -5.137043354410382E-001 -1.449021510779858E-002 
2.015467175912721E+009 -5.141136303101487E-001 -4.795419052243233E-003 
2.016284543224856E+009 -5.135559586700554E-001 6.413924507796764E-003 
2.017102242018113E+009 -5.129450164556396E-001 1.681369170546532E-002 
2.017920272426925E+009 -5.136751261239816E-001 2.731585502624512E-002 
2.018738634585777E+009 -5.124219009032345E-001 3.730148077011108E-002 
2.019557328629210E+009 -5.108647803095048E-001 4.736345261335373E-002 
2.020376354691818E+009 -5.101801225212588E-001 5.759791657328606E-002 
2.021195712908250E+009 -5.087316838400459E-001 6.798979640007019E-002 
2.022015403413212E+009 -5.073264197215525E-001 7.743588089942932E-002 
2.022835426341461E+009 -5.052501661850515E-001 8.845072984695435E-002 
2.023655781827812E+009 -5.028902474184939E-001 9.895743429660797E-002 
2.024476470007131E+009 -5.002057339108500E-001 1.089104786515236E-001 
2.025297491014343E+009 -4.982450775149888E-001 1.188019961118698E-001 
2.026118844984423E+009 -4.955780870368080E-001 1.289339065551758E-001 
2.026940532052405E+009 -4.924194987340953E-001 1.393642723560333E-001 
2.027762552353376E+009 -4.896583206971499E-001 1.489550173282623E-001 
2.028584906022477E+009 -4.866560507338236E-001 1.587677597999573E-001 
2.029407593194904E+009 -4.833189548812507E-001 1.686610728502274E-001 
2.030230614005910E+009 -4.794891042297697E-001 1.778187751770020E-001 
2.031053968590800E+009 -4.757757000920880E-001 1.872741430997849E-001 
2.031877657084936E+009 -4.723394498736622E-001 1.972327828407288E-001 
2.032701679623733E+009 -4.671803491978069E-001 2.066544592380524E-001 
2.033526036342662E+009 -4.636268904551137E-001 2.157357782125473E-001 
2.034350727377250E+009 -4.583933260203936E-001 2.251625806093216E-001 
2.035175752863076E+009 -4.537316278604394E-001 2.340260297060013E-001 
2.036001112935778E+009 -4.488142365780188E-001 2.427547127008438E-001 
2.036826807731045E+009 -4.437721681635243E-001 2.518808841705322E-001 
2.037652837384624E+009 -4.383618873466192E-001 2.608278393745422E-001 
2.038479202032315E+009 -4.331107362439872E-001 2.696876823902130E-001 
2.039305901809975E+009 -4.280095519980625E-001 2.782415449619293E-001 
2.040132936853514E+009 -4.219747858674616E-001 2.861560881137848E-001 
2.040960307298899E+009 -4.161085270576959E-001 2.951923608779907E-001 
2.041788013282150E+009 -4.103344781912686E-001 3.028283417224884E-001 
2.042616054939345E+009 -4.035520327231925E-001 3.120549619197846E-001 
2.043444432406616E+009 -3.970378170583837E-001 3.193665742874146E-001 
2.044273145820148E+009 -3.910352837488622E-001 3.272255957126617E-001 
2.045102195316184E+009 -3.842208521368249E-001 3.345160186290741E-001 
2.045931581031021E+009 -3.774663928969154E-001 3.423124849796295E-001 
2.046761303101013E+009 -3.705962621441685E-001 3.497753143310547E-001 
2.047591361662566E+009 -3.628107557479909E-001 3.574502766132355E-001 
2.048421756852145E+009 -3.565245232698385E-001 3.641323149204254E-001 
2.049252488806268E+009 -3.486586930443933E-001 3.709805607795715E-001 
2.050083557661508E+009 -3.407370944313123E-001 3.785848617553711E-001 
2.050914963554495E+009 -3.339885745599397E-001 3.851097226142883E-001 
2.051746706621915E+009 -3.260060990192915E-001 3.921301364898682E-001 
2.052578787000506E+009 -3.178149369432307E-001 3.978647291660309E-001 
2.053411204827066E+009 -3.102024220370233E-001 4.043987691402435E-001 
2.054243960238444E+009 -3.019519967173949E-001 4.104663431644440E-001 
2.055077053371548E+009 -2.935362518367910E-001 4.166485965251923E-001 
2.055910484363339E+009 -2.850393453460511E-001 4.227092266082764E-001 
2.056744253350835E+009 -2.770286129043394E-001 4.271227717399597E-001 
2.057578360471110E+009 -2.678996818640289E-001 4.331828653812408E-001 
2.058412805861293E+009 -2.590196311650766E-001 4.382997453212738E-001 
2.059247589658567E+009 -2.508897065187697E-001 4.439138174057007E-001 
2.060082712000173E+009 -2.412837336060343E-001 4.478040039539337E-001 
2.060918173023407E+009 -2.331182762137179E-001 4.530743360519409E-001 
2.061753972865620E+009 -2.232266245392017E-001 4.574698209762573E-001 
2.062590111664219E+009 -2.140817431501720E-001 4.627505838871002E-001 
2.063426589556668E+009 -2.044170774122186E-001 4.666856229305267E-001 
2.064263406680484E+009 -1.949810096988147E-001 4.706622660160065E-001 
2.065100563173242E+009 -1.857648869734892E-001 4.743455052375794E-001 
2.065938059172572E+009 -1.757556465879556E-001 4.787810146808624E-001 
2.066775894816160E+009 -1.661576418837260E-001 4.823379218578339E-001 
2.067614070241749E+009 -1.573471249618069E-001 4.851784706115723E-001 
2.068452585587135E+009 -1.468027998181704E-001 4.883312284946442E-001 
2.069291440990173E+009 -1.366569099534815E-001 4.911506772041321E-001 
2.070130636588771E+009 -1.269727971919044E-001 4.943186938762665E-001 
2.070970172520895E+009 -1.178286682553729E-001 4.962133765220642E-001 
2.071810048924567E+009 -1.077674712619277E-001 4.988105297088623E-001 
2.072650265937864E+009 -9.732019154419114E-002 5.010272264480591E-001 
2.073490823698918E+009 -8.708065110066730E-002 5.029343366622925E-001 
2.074331722345921E+009 -7.703849858059805E-002 5.049491524696350E-001 
2.075172962017116E+009 -6.652443421489483E-002 5.061607956886292E-001 
2.076014542850805E+009 -5.537368118188958E-002 5.083002448081970E-001 
2.076856464985346E+009 -4.579563664572763E-002 5.089400410652161E-001 
2.077698728559153E+009 -3.544449466090980E-002 5.097966194152832E-001 
2.078541333710695E+009 -2.546311592617406E-002 5.105237364768982E-001 
2.079384280578498E+009 -1.503431392014148E-002 5.109952092170715E-001 
2.080227569301144E+009 -4.140544569493967E-003 5.116710066795349E-001 
2.081071200017272E+009 5.972847171631888E-003 5.108177065849304E-001 
2.081915172865577E+009 1.678756103625152E-002 5.113163590431213E-001 
2.082759487984808E+009 2.714885093622961E-002 5.108939409255981E-001 
2.083604145513773E+009 3.761123815641913E-002 5.103923082351685E-001 
2.084449145591336E+009 4.737909494821345E-002 5.097978711128235E-001 
2.085294488356415E+009 5.772757113558161E-002 5.088640451431274E-001 
2.086140173947988E+009 6.783052320759325E-002 5.075697302818298E-001 
2.086986202505086E+009 7.876984404891887E-002 5.063242316246033E-001 
2.087832574166798E+009 8.852952518005747E-002 5.052798390388489E-001 
2.088679289072269E+009 9.928894559540574E-002 5.032262206077576E-001 
2.089526347360701E+009 1.095981942333339E-001 5.012047290802002E-001 
2.090373749171352E+009 1.191854212062280E-001 4.989965260028839E-001 
2.091221494643537E+009 1.293182305948132E-001 4.962453544139862E-001 
2.092069583916626E+009 1.397529306242449E-001 4.934718608856201E-001 
2.092918017130047E+009 1.496102176944447E-001 4.911058247089386E-001 
2.093766794423284E+009 1.601729178435523E-001 4.879173636436462E-001 
2.094615915935878E+009 1.703649204509976E-001 4.846288263797760E-001 
2.095465381807426E+009 1.800893130040300E-001 4.810788929462433E-001 
2.096315192177581E+009 1.904314742025463E-001 4.772340953350067E-001 
2.097165347186055E+009 1.999511535201456E-001 4.733253419399262E-001 
2.098015846972614E+009 2.100678837304159E-001 4.688244760036469E-001 
2.098866691677083E+009 2.193722487329230E-001 4.647856056690216E-001 
2.099717881439341E+009 2.294032874400707E-001 4.603577852249146E-001 
2.100569416399327E+009 2.386922988659177E-001 4.555044472217560E-001 
2.101421296697033E+009 2.480363949243483E-001 4.506006836891174E-001 
2.102273522472512E+009 2.569402712506888E-001 4.457197487354279E-001 
2.103126093865869E+009 2.660345900089974E-001 4.403947293758392E-001 
2.103979011017271E+009 2.744060332224074E-001 4.352039694786072E-001 
2.104832274066938E+009 2.842262729003739E-001 4.293788373470306E-001 
2.105685883155148E+009 2.927239176055689E-001 4.235043823719025E-001 
2.106539838422236E+009 3.011103015059392E-001 4.176340103149414E-001 
2.107394140008595E+009 3.108649388358949E-001 4.109806120395660E-001 
2.108248788054672E+009 3.188103130058940E-001 4.043839573860169E-001 
2.109103782700974E+009 3.268049003739355E-001 3.985849022865295E-001 
2.109959124088064E+009 3.351089194910271E-001 3.914543390274048E-001 
2.110814812356561E+009 3.434888917546061E-001 3.841215372085571E-001 
2.111670847647142E+009 3.513709584927333E-001 3.773338198661804E-001 
2.112527230100541E+009 3.586578941562533E-001 3.698581457138062E-001 
2.113383959857550E+009 3.662667807397100E-001 3.631297647953033E-001 
2.114241037059016E+009 3.742417271807136E-001 3.553946912288666E-001 
2.115098461845843E+009 3.816884035817157E-001 3.470843732357025E-001 
2.115956234358996E+009 3.878709138994160E-001 3.391489386558533E-001 
2.116814354739492E+009 3.955607591103924E-001 3.315231502056122E-001 
2.117672823128409E+009 4.022716941335404E-001 3.232748806476593E-001 
2.118531639666881E+009 4.092279340137872E-001 3.149093687534332E-001 
2.119390804496099E+009 4.150108081380900E-001 3.065057694911957E-001 
2.120250317757310E+009 4.220745437882431E-001 2.977622151374817E-001 
2.121110179591821E+009 4.279589126118225E-001 2.894027531147003E-001 
2.121970390140996E+009 4.334864922435497E-001 2.806763350963593E-001 
2.122830949546253E+009 4.396790822526149E-001 2.710386216640472E-001 
2.123691857949070E+009 4.451699273337484E-001 2.624361515045166E-001 
2.124553115490984E+009 4.508641589501026E-001 2.528818845748901E-001 
2.125414722313585E+009 4.563421673011360E-001 2.437765747308731E-001 
2.126276678558525E+009 4.613348951573368E-001 2.341794669628143E-001 
2.127138984367510E+009 4.655956826803487E-001 2.245219796895981E-001 
2.128001639882304E+009 4.706332036047266E-001 2.153743654489517E-001 
2.128864645244731E+009 4.745484254877083E-001 2.056908309459686E-001 
2.129728000596671E+009 4.791097443457635E-001 1.953320503234863E-001 
2.130591706080059E+009 4.833786241881435E-001 1.850381493568420E-001 
2.131455761836892E+009 4.870076793853006E-001 1.757441312074661E-001 
2.132320168009221E+009 4.910932116963278E-001 1.652415394783020E-001 
2.133184924739157E+009 4.939353980395808E-001 1.552184671163559E-001 
2.134050032168868E+009 4.972739917427063E-001 1.442472487688065E-001 
2.134915490440578E+009 5.009926271655696E-001 1.342098116874695E-001 
2.135781299696571E+009 5.037940279182434E-001 1.236228272318840E-001 
2.136647460079188E+009 5.062955674096147E-001 1.126344129443169E-001 
2.137513971730827E+009 5.080805797865214E-001 1.029964908957481E-001 
2.138380834793944E+009 5.110067223150666E-001 9.265121072530747E-002 
2.139248049411053E+009 5.128795368759128E-001 8.191803842782974E-002 
2.140115615724726E+009 5.145071004606833E-001 7.099004089832306E-002 
2.140983533877593E+009 5.156874699448446E-001 6.054893136024475E-002 
2.141851804012341E+009 5.170670719931593E-001 4.887956753373146E-002 
2.142720426271716E+009 5.183852538922615E-001 3.868630155920982E-002 
2.143589400798519E+009 5.190838822826183E-001 2.849383652210236E-002 
2.144458727735614E+009 5.193513835783356E-001 1.712915115058422E-002 
2.145328407225918E+009 5.199727469793323E-001 6.092928349971771E-003 
2.146198439412409E+009 5.195196819177002E-001 -4.587718751281500E-003 
2.147068824438122E+009 5.192330894594925E-001 -1.571048237383366E-002 
2.147939562446149E+009 5.191185341785507E-001 -2.625186182558537E-002 
2.148810653579642E+009 5.187271562740119E-001 -3.749391436576843E-002 
2.149682097981810E+009 5.181083681032648E-001 -4.803444817662239E-002 
2.150553895795920E+009 5.174695716136977E-001 -5.895479023456574E-002 
2.151426047165297E+009 5.162002211368685E-001 -7.012053579092026E-002 
2.152298552233325E+009 5.144751342162742E-001 -8.055182546377182E-002 
2.153171411143445E+009 5.128436848087227E-001 -9.103193879127502E-002 
2.154044624039157E+009 5.106423984511720E-001 -1.021143421530724E-001 
2.154918191064019E+009 5.087792305676098E-001 -1.127360612154007E-001 
2.155792112361647E+009 5.066889260883093E-001 -1.229018345475197E-001 
2.156666388075715E+009 5.043174441597346E-001 -1.338572055101395E-001 
2.157541018349956E+009 5.017250630081966E-001 -1.450358182191849E-001 
2.158416003328160E+009 4.980984919754981E-001 -1.548288762569428E-001 
2.159291343154178E+009 4.951111188972099E-001 -1.653145402669907E-001 
2.160167037971917E+009 4.920612587877659E-001 -1.760422587394714E-001 
2.161043087925342E+009 4.879467873482852E-001 -1.857289820909500E-001 
2.161919493158478E+009 4.848119223873852E-001 -1.965371519327164E-001 
2.162796253815408E+009 4.798767788021180E-001 -2.063579261302948E-001 
2.163673370040273E+009 4.760985081365533E-001 -2.166726887226105E-001 
2.164550841977273E+009 4.709201486196609E-001 -2.270746678113937E-001 
2.165428669770665E+009 4.662919375514671E-001 -2.368447035551071E-001 
2.166306853564766E+009 4.617003112937237E-001 -2.469248324632645E-001 
2.167185393503952E+009 4.564692013816204E-001 -2.569937705993652E-001 
2.168064289732655E+009 4.513522926527726E-001 -2.663945257663727E-001 
2.168943542395369E+009 4.453186887927400E-001 -2.763549089431763E-001 
2.169823151636644E+009 4.396793950161221E-001 -2.857880592346191E-001 
2.170703117601090E+009 4.337235311249861E-001 -2.948315739631653E-001 
2.171583440433374E+009 4.266814803561406E-001 -3.048338890075684E-001 
2.172464120278224E+009 4.213950320039014E-001 -3.135030865669251E-001 
2.173345157280425E+009 4.146966606729611E-001 -3.221696019172669E-001 
2.174226551584821E+009 4.075230596176592E-001 -3.317224979400635E-001 
2.175108303336316E+009 4.001705139808776E-001 -3.398131132125855E-001 
2.175990412679870E+009 3.929644739027415E-001 -3.493450284004211E-001 
2.176872879760504E+009 3.859390672352413E-001 -3.570393919944763E-001 
2.177755704723299E+009 3.786658641846620E-001 -3.654101192951202E-001 
2.178638887713391E+009 3.708375133478340E-001 -3.735858798027039E-001 
2.179522428875978E+009 3.629454100369570E-001 -3.816399872303009E-001 
2.180406328356316E+009 3.549843975456892E-001 -3.891549706459045E-001 
2.181290586299719E+009 3.468966573270693E-001 -3.965288698673248E-001 
2.182175202851562E+009 3.382982141257365E-001 -4.038620889186859E-001 
2.183060178157276E+009 3.299831851537269E-001 -4.114422202110291E-001 
2.183945512362355E+009 3.207643825166859E-001 -4.185402691364288E-001 
2.184831205612348E+009 3.126441653976224E-001 -4.251406192779541E-001 
2.185717258052865E+009 3.027775228147553E-001 -4.321498870849609E-001 
2.186603669829574E+009 2.940038190732149E-001 -4.383263289928436E-001 
2.187490441088204E+009 2.840600311985561E-001 -4.457130730152130E-001 
2.188377571974542E+009 2.745686635851391E-001 -4.513568282127380E-001 
2.189265062634434E+009 2.648412274889173E-001 -4.572133719921112E-001 
2.190152913213784E+009 2.550854771628773E-001 -4.633406102657318E-001 
2.191041123858557E+009 2.452406925685461E-001 -4.688030481338501E-001 
2.191929694714778E+009 2.356038337438973E-001 -4.741413295269013E-001 
2.192818625928527E+009 2.250006114304136E-001 -4.792922735214233E-001 
2.193707917645948E+009 2.149389835068835E-001 -4.838237464427948E-001 
2.194597570013243E+009 2.047684971714716E-001 -4.887683987617493E-001 
2.195487583176671E+009 1.936406612227096E-001 -4.923976659774780E-001 
2.196377957282552E+009 1.830324323644321E-001 -4.972947239875794E-001 
2.197268692477265E+009 1.718470728399901E-001 -5.012261867523193E-001 
2.198159788907250E+009 1.615342811988114E-001 -5.053588151931763E-001 
2.199051246719005E+009 1.502023172686503E-001 -5.085252523422241E-001 
2.199943066059085E+009 1.389612251892221E-001 -5.114545822143555E-001 
2.200835247074110E+009 1.277902903841825E-001 -5.143485069274902E-001 
2.201727789910753E+009 1.174790912531838E-001 -5.169852375984192E-001 
2.202620694715753E+009 1.053972406676232E-001 -5.197052359580994E-001 
2.203513961635903E+009 9.468316269882833E-002 -5.218411684036255E-001 
2.204407590818059E+009 8.357895173666977E-002 -5.242540836334229E-001 
2.205301582409135E+009 7.271788708858018E-002 -5.257027149200440E-001 
2.206195936556105E+009 6.053865832092802E-002 -5.275730490684509E-001 
2.207090653406003E+009 4.939128154040079E-002 -5.289139747619629E-001 
2.207985733105922E+009 3.849724613398663E-002 -5.300579667091370E-001 
2.208881175803014E+009 2.707647525418292E-002 -5.305616855621338E-001 
2.209776981644492E+009 1.587676542242813E-002 -5.310645699501038E-001 
2.210673150777629E+009 4.064711023877191E-003 -5.312393903732300E-001 
2.211569683349756E+009 -7.273536143988886E-003 -5.315365791320801E-001 
2.212466579508266E+009 -1.923680154660194E-002 -5.315117835998535E-001 
2.213363839400609E+009 -3.047556022722788E-002 -5.310022234916687E-001 
2.214261463174296E+009 -4.214694675673748E-002 -5.298515558242798E-001 
2.215159450976900E+009 -5.345812510366276E-002 -5.290428400039673E-001 
2.216057802956051E+009 -6.541791294122704E-002 -5.279095172882080E-001 
2.216956519259439E+009 -7.642723401244295E-002 -5.264441967010498E-001 
2.217855600034816E+009 -8.743916125222437E-002 -5.246087312698364E-001 
2.218755045429992E+009 -1.000865679261452E-001 -5.231096744537354E-001 
2.219654855592837E+009 -1.108770270675528E-001 -5.207879543304443E-001 
2.220555030671283E+009 -1.221981115117775E-001 -5.185895562171936E-001 
2.221455570813320E+009 -1.339182488273889E-001 -5.156483650207520E-001 
2.222356476166997E+009 -1.444540260931100E-001 -5.128204226493835E-001 
2.223257746880427E+009 -1.558184178786651E-001 -5.097684264183044E-001 
2.224159383101780E+009 -1.667603874578462E-001 -5.053717494010925E-001 
2.225061384979286E+009 -1.779264368242468E-001 -5.026468038558960E-001 
2.225963752661236E+009 -1.887957882637811E-001 -4.985570907592773E-001 
2.226866486295981E+009 -1.998446298226783E-001 -4.943114221096039E-001 
2.227769586031933E+009 -2.106470221174581E-001 -4.900576174259186E-001 
2.228673052017562E+009 -2.211885329777494E-001 -4.854004085063934E-001 
2.229576884401401E+009 -2.323483325955329E-001 -4.808657467365265E-001 
2.230481083332041E+009 -2.425975136023346E-001 -4.753627181053162E-001 
2.231385648958135E+009 -2.523594632693925E-001 -4.696961045265198E-001 
2.232290581428393E+009 -2.631018442698829E-001 -4.642798304557800E-001 
2.233195880891591E+009 -2.729399618943743E-001 -4.589374065399170E-001 
2.234101547496559E+009 -2.829687480824037E-001 -4.527937471866608E-001 
2.235007581392192E+009 -2.930269811777660E-001 -4.464235007762909E-001 
2.235913982727444E+009 -3.025966896785037E-001 -4.401721358299255E-001 
2.236820751651328E+009 -3.124341379653413E-001 -4.336124956607819E-001 
